time,field.linear.x,field.linear.y,field.linear.z,field.angular.x,field.angular.y,field.angular.z
1727242187610532647,-0.531,0.0,0.0,0.0,0.0,0.0
1727242187710919028,-0.531,0.0,0.0,0.0,0.0,0.0
1727242187810973298,-0.531,0.0,0.0,0.0,0.0,0.0
1727242187913558929,-0.531,0.0,0.0,0.0,0.0,0.0
1727242188011165497,-0.531,0.0,0.0,0.0,0.0,0.0
1727242188110869824,-0.531,0.0,0.0,0.0,0.0,0.0
1727242188210605294,-0.531,0.0,0.0,0.0,0.0,0.0
1727242188311005695,-0.531,0.0,0.0,0.0,0.0,0.0
1727242188410963384,-0.531,0.0,0.0,0.0,0.0,0.0
1727242188511410901,-0.531,0.0,0.0,0.0,0.0,0.0
1727242188611636971,-0.531,0.0,0.0,0.0,0.0,0.0
1727242188711114840,-0.531,0.0,0.0,0.0,0.0,0.0
1727242188811109052,-0.531,0.0,0.0,0.0,0.0,0.0
1727242188915258560,-0.531,0.0,0.0,0.0,0.0,0.0
1727242189010416871,-0.531,0.0,0.0,0.0,0.0,0.0
1727242189111315600,-0.531,0.0,0.0,0.0,0.0,0.0
1727242189211255939,-0.531,0.0,0.0,0.0,0.0,0.0
1727242189310434293,-0.531,0.0,0.0,0.0,0.0,0.0
1727242189319332065,-0.523,0.0,0.0,0.0,0.0,0.0
1727242189331246348,-0.499,0.0,0.0,0.0,0.0,0.0
1727242189343574358,-0.475,0.0,0.0,0.0,0.0,0.0
1727242189351417936,-0.443,0.0,0.0,0.0,0.0,0.0
1727242189367297701,-0.419,0.0,0.0,0.0,0.0,0.0
1727242189391508112,-0.388,0.0,0.0,0.0,0.0,0.0
1727242189403256494,-0.356,0.0,0.0,0.0,0.0,0.0
1727242189411190064,-0.356,0.0,0.0,0.0,0.0,0.0
1727242189423308848,-0.324,0.0,0.0,0.0,0.0,0.0
1727242189431191829,-0.3,0.0,0.0,0.0,0.0,0.0
1727242189455434487,-0.284,0.0,0.0,0.0,0.0,0.0
1727242189463227018,-0.268,0.0,0.0,0.0,0.0,0.0
1727242189483262629,-0.252,0.0,0.0,0.0,0.0,0.0
1727242189495247392,-0.244,0.0,0.0,0.0,0.0,0.0
1727242189511040741,-0.244,0.0,0.0,0.0,0.0,0.0
1727242189515235218,-0.228,0.0,0.0,0.0,0.0,0.0
1727242189531523432,-0.22,0.0,0.0,0.0,0.0,0.0
1727242189543273872,-0.212,0.0,0.0,0.0,0.0,0.0
1727242189559339714,-0.204,0.0,0.0,0.0,0.0,0.0
1727242189575359102,-0.196,0.0,0.0,0.0,0.0,0.0
1727242189610990536,-0.196,0.0,0.0,0.0,0.0,0.0
1727242189619585439,-0.188,0.0,0.0,0.0,0.0,0.0
1727242189711099461,-0.188,0.0,0.0,0.0,0.0,0.0
1727242189811367250,-0.188,0.0,0.0,0.0,0.0,0.0
1727242189913773203,-0.188,0.0,0.0,0.0,0.0,0.0
1727242190010446277,-0.188,0.0,0.0,0.0,0.0,0.0
1727242190110769100,-0.188,0.0,0.0,0.0,0.0,0.0
1727242190211037072,-0.188,0.0,0.0,0.0,0.0,0.0
1727242190311361334,-0.188,0.0,0.0,0.0,0.0,0.0
1727242190339972938,-0.173,0.0,0.0,0.0,0.0,0.0
1727242190367675304,-0.125,0.0,0.0,0.0,0.0,0.0
1727242190375519340,-0.093,0.0,0.0,0.0,0.0,0.0
1727242190395682893,-0.053,0.0,0.0,0.0,0.0,0.0
1727242190407757977,-0.013,0.0,0.0,0.0,0.0,0.0
1727242190410651376,-0.013,0.0,0.0,0.0,0.0,0.0
1727242190427740782,0.027,0.0,0.0,0.0,0.0,0.0
1727242190435607558,0.058,0.0,0.0,0.0,0.0,0.0
1727242190463977825,0.09,0.0,0.0,0.0,0.0,0.0
1727242190471692242,0.122,0.0,0.0,0.0,0.0,0.0
1727242190488081810,0.146,0.0,0.0,0.0,0.0,0.0
1727242190503819524,0.178,0.0,0.0,0.0,0.0,0.0
1727242190511153723,0.178,0.0,0.0,0.0,0.0,0.0
1727242190520232524,0.202,0.0,0.0,0.0,0.0,0.0
1727242190531938898,0.218,0.0,0.0,0.0,0.0,0.0
1727242190547755729,0.234,0.0,0.0,0.0,0.0,0.0
1727242190563803864,0.25,0.0,0.0,0.0,0.0,0.0
1727242190579735914,0.258,0.0,0.0,0.0,0.0,0.0
1727242190610873727,0.258,0.0,0.0,0.0,0.0,0.0
1727242190615851570,0.265,0.0,0.0,0.0,0.0,0.0
1727242190710907445,0.265,0.0,0.0,0.0,0.0,0.0
1727242190811203268,0.265,0.0,0.0,0.0,0.0,0.0
1727242190913852567,0.265,0.0,0.0,0.0,0.0,0.0
1727242191011614112,0.265,0.0,0.0,0.0,0.0,0.0
1727242191110621756,0.265,0.0,0.0,0.0,0.0,0.0
1727242191210838924,0.265,0.0,0.0,0.0,0.0,0.0
1727242191311000549,0.265,0.0,0.0,0.0,0.0,0.0
1727242191410896483,0.265,0.0,0.0,0.0,0.0,0.0
1727242191510994561,0.265,0.0,0.0,0.0,0.0,0.0
1727242191610632775,0.265,0.0,0.0,0.0,0.0,0.0
1727242191648011946,0.273,0.0,0.0,0.0,0.0,0.0
1727242191668050487,0.289,0.0,0.0,0.0,0.0,0.0
1727242191684046732,0.313,0.0,0.0,0.0,0.0,0.0
1727242191700008362,0.353,0.0,0.0,0.0,0.0,0.0
1727242191710357162,0.353,0.0,0.0,0.0,0.0,0.0
1727242191711970946,0.401,0.0,0.0,0.0,0.0,0.0
1727242191727999301,0.488,0.0,0.0,0.0,0.0,0.0
1727242191744013244,0.584,0.0,0.0,0.0,0.0,0.0
1727242191764035236,0.664,0.0,0.0,0.0,0.0,0.0
1727242191771854755,0.791,0.0,0.0,0.0,0.0,0.0
1727242191787953267,0.919,0.0,0.0,0.0,0.0,0.0
1727242191804046446,1.014,0.0,0.0,0.0,0.0,0.0
1727242191811118639,1.014,0.0,0.0,0.0,0.0,0.0
1727242191824216995,1.086,0.0,0.0,0.0,0.0,0.0
1727242191840223095,1.158,0.0,0.0,0.0,0.0,0.0
1727242191856114299,1.229,0.0,0.0,0.0,0.0,0.0
1727242191884339269,1.285,0.0,0.0,0.0,0.0,0.0
1727242191896236962,1.333,0.0,0.0,0.0,0.0,0.0
1727242191904060604,1.381,0.0,0.0,0.0,0.0,0.0
1727242191917189283,1.381,0.0,0.0,0.0,0.0,0.0
1727242191917759794,1.428,0.0,0.0,0.0,0.0,0.0
1727242191936048836,1.46,0.0,0.0,0.0,0.0,0.0
1727242191948224708,1.492,0.0,0.0,0.0,0.0,0.0
1727242191964378222,1.5,0.0,0.0,0.0,0.0,0.0
1727242192011303142,1.5,0.0,0.0,0.0,0.0,0.0
1727242192111103801,1.5,0.0,0.0,0.0,0.0,0.0
1727242192211207271,1.5,0.0,0.0,0.0,0.0,0.0
1727242192310706042,1.5,0.0,0.0,0.0,0.0,0.0
1727242192410893451,1.5,0.0,0.0,0.0,0.0,0.0
1727242192511150723,1.5,0.0,0.0,0.0,0.0,0.0
1727242192611666608,1.5,0.0,0.0,0.0,0.0,0.0
1727242192711528033,1.5,0.0,0.0,0.0,0.0,0.0
1727242192810485786,1.5,0.0,0.0,0.0,0.0,0.0
1727242192916722359,1.5,0.0,0.0,0.0,0.0,0.0
1727242193010561877,1.5,0.0,0.0,0.0,0.0,0.0
1727242193110907688,1.5,0.0,0.0,0.0,0.0,0.0
1727242193210496510,1.5,0.0,0.0,0.0,0.0,0.0
1727242193310513130,1.5,0.0,0.0,0.0,0.0,0.0
1727242193410688282,1.5,0.0,0.0,0.0,0.0,0.0
1727242193510908555,1.5,0.0,0.0,0.0,0.0,0.0
1727242193611204116,1.5,0.0,0.0,0.0,0.0,0.0
1727242193711795050,1.5,0.0,0.0,0.0,0.0,0.0
1727242193810610785,1.5,0.0,0.0,0.0,0.0,0.0
1727242193913828877,1.5,0.0,0.0,0.0,0.0,0.0
1727242194010738579,1.5,0.0,0.0,0.0,0.0,0.0
1727242194110626793,1.5,0.0,0.0,0.0,0.0,0.0
1727242194210775614,1.5,0.0,0.0,0.0,0.0,0.0
1727242194310564699,1.5,0.0,0.0,0.0,0.0,0.0
1727242194410983247,1.5,0.0,0.0,0.0,0.0,0.0
1727242194510735515,1.5,0.0,0.0,0.0,0.0,0.0
1727242194611016405,1.5,0.0,0.0,0.0,0.0,0.0
1727242194710959957,1.5,0.0,0.0,0.0,0.0,0.0
1727242194811524651,1.5,0.0,0.0,0.0,0.0,0.0
1727242194915446722,1.5,0.0,0.0,0.0,0.0,0.0
1727242195011010456,1.5,0.0,0.0,0.0,0.0,0.0
1727242195111554191,1.5,0.0,0.0,0.0,0.0,0.0
1727242195210603957,1.5,0.0,0.0,0.0,0.0,0.0
1727242195310892429,1.5,0.0,0.0,0.0,0.0,0.0
1727242195411173831,1.5,0.0,0.0,0.0,0.0,0.0
1727242195511474416,1.5,0.0,0.0,0.0,0.0,0.0
1727242195611361010,1.5,0.0,0.0,0.0,0.0,0.0
1727242195711405458,1.5,0.0,0.0,0.0,0.0,0.0
1727242195811290166,1.5,0.0,0.0,0.0,0.0,0.0
1727242195914040789,1.5,0.0,0.0,0.0,0.0,0.0
1727242196011675398,1.5,0.0,0.0,0.0,0.0,0.0
1727242196111465683,1.5,0.0,0.0,0.0,0.0,0.0
1727242196210546845,1.5,0.0,0.0,0.0,0.0,0.0
1727242196310902368,1.5,0.0,0.0,0.0,0.0,0.0
1727242196411196972,1.5,0.0,0.0,0.0,0.0,0.0
1727242196511612983,1.5,0.0,0.0,0.0,0.0,0.0
1727242196611577805,1.5,0.0,0.0,0.0,0.0,0.0
1727242196710863199,1.5,0.0,0.0,0.0,0.0,0.0
1727242196811538063,1.5,0.0,0.0,0.0,0.0,0.0
1727242196913732557,1.5,0.0,0.0,0.0,0.0,0.0
1727242197010529499,1.5,0.0,0.0,0.0,0.0,0.0
1727242197110820809,1.5,0.0,0.0,0.0,0.0,0.0
1727242197211012633,1.5,0.0,0.0,0.0,0.0,0.0
1727242197311575050,1.5,0.0,0.0,0.0,0.0,0.0
1727242197410765733,1.5,0.0,0.0,0.0,0.0,0.0
1727242197510908768,1.5,0.0,0.0,0.0,0.0,0.0
1727242197611294852,1.5,0.0,0.0,0.0,0.0,0.0
1727242197711754475,1.5,0.0,0.0,0.0,0.0,0.0
1727242197810812896,1.5,0.0,0.0,0.0,0.0,0.0
1727242197913930967,1.5,0.0,0.0,0.0,0.0,0.0
1727242198011397690,1.5,0.0,0.0,0.0,0.0,0.0
1727242198110649036,1.5,0.0,0.0,0.0,0.0,0.0
1727242198210959156,1.5,0.0,0.0,0.0,0.0,0.0
1727242198310998129,1.5,0.0,0.0,0.0,0.0,0.0
1727242198411113866,1.5,0.0,0.0,0.0,0.0,0.0
1727242198510820501,1.5,0.0,0.0,0.0,0.0,0.0
1727242198611599563,1.5,0.0,0.0,0.0,0.0,0.0
1727242198710680948,1.5,0.0,0.0,0.0,0.0,0.0
1727242198811003096,1.5,0.0,0.0,0.0,0.0,0.0
1727242198913707979,1.5,0.0,0.0,0.0,0.0,0.0
1727242199010958558,1.5,0.0,0.0,0.0,0.0,0.0
1727242199110926508,1.5,0.0,0.0,0.0,0.0,0.0
1727242199211023708,1.5,0.0,0.0,0.0,0.0,0.0
1727242199310925773,1.5,0.0,0.0,0.0,0.0,0.0
1727242199411180819,1.5,0.0,0.0,0.0,0.0,0.0
1727242199511134210,1.5,0.0,0.0,0.0,0.0,0.0
1727242199611694169,1.5,0.0,0.0,0.0,0.0,0.0
1727242199710721879,1.5,0.0,0.0,0.0,0.0,0.0
1727242199811399307,1.5,0.0,0.0,0.0,0.0,0.0
1727242199915640851,1.5,0.0,0.0,0.0,0.0,0.0
1727242200010882602,1.5,0.0,0.0,0.0,0.0,0.0
1727242200111480872,1.5,0.0,0.0,0.0,0.0,0.0
1727242200210780676,1.5,0.0,0.0,0.0,0.0,0.0
1727242200310915956,1.5,0.0,0.0,0.0,0.0,0.0
1727242200410982679,1.5,0.0,0.0,0.0,0.0,0.0
1727242200511174924,1.5,0.0,0.0,0.0,0.0,0.0
1727242200611284717,1.5,0.0,0.0,0.0,0.0,0.0
1727242200710545860,1.5,0.0,0.0,0.0,0.0,0.0
1727242200811002695,1.5,0.0,0.0,0.0,0.0,0.0
1727242200913973150,1.5,0.0,0.0,0.0,0.0,0.0
1727242201010523776,1.5,0.0,0.0,0.0,0.0,0.0
1727242201110693895,1.5,0.0,0.0,0.0,0.0,0.0
1727242201211028482,1.5,0.0,0.0,0.0,0.0,0.0
1727242201311361174,1.5,0.0,0.0,0.0,0.0,0.0
1727242201410622467,1.5,0.0,0.0,0.0,0.0,0.0
1727242201510792781,1.5,0.0,0.0,0.0,0.0,0.0
1727242201610856384,1.5,0.0,0.0,0.0,0.0,0.0
1727242201711053358,1.5,0.0,0.0,0.0,0.0,0.0
1727242201811387904,1.5,0.0,0.0,0.0,0.0,0.0
1727242201913546089,1.5,0.0,0.0,0.0,0.0,0.0
1727242202011184999,1.5,0.0,0.0,0.0,0.0,0.0
1727242202110850031,1.5,0.0,0.0,0.0,0.0,0.0
1727242202210864236,1.5,0.0,0.0,0.0,0.0,0.0
1727242202311181924,1.5,0.0,0.0,0.0,0.0,0.0
1727242202411448368,1.5,0.0,0.0,0.0,0.0,0.0
1727242202510412755,1.5,0.0,0.0,0.0,0.0,0.0
1727242202610989532,1.5,0.0,0.0,0.0,0.0,0.0
1727242202711065706,1.5,0.0,0.0,0.0,0.0,0.0
1727242202811289625,1.5,0.0,0.0,0.0,0.0,0.0
1727242202915257301,1.5,0.0,0.0,0.0,0.0,0.0
1727242203011020780,1.5,0.0,0.0,0.0,0.0,0.0
1727242203111041623,1.5,0.0,0.0,0.0,0.0,0.0
1727242203210476403,1.5,0.0,0.0,0.0,0.0,0.0
1727242203311038228,1.5,0.0,0.0,0.0,0.0,0.0
1727242203411018589,1.5,0.0,0.0,0.0,0.0,0.0
1727242203511012584,1.5,0.0,0.0,0.0,0.0,0.0
1727242203610996309,1.5,0.0,0.0,0.0,0.0,0.0
1727242203710912528,1.5,0.0,0.0,0.0,0.0,0.0
1727242203811070666,1.5,0.0,0.0,0.0,0.0,0.0
1727242203913910707,1.5,0.0,0.0,0.0,0.0,0.0
1727242204011345265,1.5,0.0,0.0,0.0,0.0,0.0
1727242204111315545,1.5,0.0,0.0,0.0,0.0,0.0
1727242204210432796,1.5,0.0,0.0,0.0,0.0,0.0
1727242204311391881,1.5,0.0,0.0,0.0,0.0,0.0
1727242204411379146,1.5,0.0,0.0,0.0,0.0,0.0
1727242204510688735,1.5,0.0,0.0,0.0,0.0,0.0
1727242204610637543,1.5,0.0,0.0,0.0,0.0,0.0
1727242204710827607,1.5,0.0,0.0,0.0,0.0,0.0
1727242204810997255,1.5,0.0,0.0,0.0,0.0,0.0
1727242204912851797,1.5,0.0,0.0,0.0,0.0,0.0
1727242205010645803,1.5,0.0,0.0,0.0,0.0,0.0
1727242205110517671,1.5,0.0,0.0,0.0,0.0,0.0
1727242205210607704,1.5,0.0,0.0,0.0,0.0,0.0
1727242205310684003,1.5,0.0,0.0,0.0,0.0,0.0
1727242205410907666,1.5,0.0,0.0,0.0,0.0,0.0
1727242205510614164,1.5,0.0,0.0,0.0,0.0,0.0
1727242205610947952,1.5,0.0,0.0,0.0,0.0,0.0
1727242205655749684,1.492,0.0,0.0,0.0,0.0,0.0
1727242205703714543,1.484,0.0,0.0,0.0,0.0,0.0
1727242205710709291,1.484,0.0,0.0,0.0,0.0,0.0
1727242205743679632,1.476,0.0,0.0,0.0,0.0,0.0
1727242205751619577,1.468,0.0,0.0,0.0,0.0,0.0
1727242205767774157,1.46,0.0,0.0,0.0,0.0,0.0
1727242205783591013,1.452,0.0,0.0,0.0,0.0,0.0
1727242205799711673,1.436,0.0,0.0,0.0,0.0,0.0
1727242205810577054,1.436,0.0,0.0,0.0,0.0,0.0
1727242205811646866,1.428,0.0,0.0,0.0,0.0,0.0
1727242205827782390,1.412,0.0,0.0,0.0,0.0,0.0
1727242205843589306,1.396,0.0,0.0,0.0,0.0,0.0
1727242205859780513,1.388,0.0,0.0,0.0,0.0,0.0
1727242205871856322,1.373,0.0,0.0,0.0,0.0,0.0
1727242205895930566,1.357,0.0,0.0,0.0,0.0,0.0
1727242205903546536,1.341,0.0,0.0,0.0,0.0,0.0
1727242205913722206,1.341,0.0,0.0,0.0,0.0,0.0
1727242205923821087,1.325,0.0,0.0,0.0,0.0,0.0
1727242205939613382,1.309,0.0,0.0,0.0,0.0,0.0
1727242205955772738,1.293,0.0,0.0,0.0,0.0,0.0
1727242205971799224,1.277,0.0,0.0,0.0,0.0,0.0
1727242205983665147,1.261,0.0,0.0,0.0,0.0,0.0
1727242205999633245,1.245,0.0,0.0,0.0,0.0,0.0
1727242206011066480,1.245,0.0,0.0,0.0,0.0,0.0
1727242206015629045,1.237,0.0,0.0,0.0,0.0,0.0
1727242206031632319,1.221,0.0,0.0,0.0,0.0,0.0
1727242206043652606,1.205,0.0,0.0,0.0,0.0,0.0
1727242206059585799,1.189,0.0,0.0,0.0,0.0,0.0
1727242206075647878,1.173,0.0,0.0,0.0,0.0,0.0
1727242206091766093,1.158,0.0,0.0,0.0,0.0,0.0
1727242206107715805,1.142,0.0,0.0,0.0,0.0,0.0
1727242206110663604,1.142,0.0,0.0,0.0,0.0,0.0
1727242206127585578,1.126,0.0,0.0,0.0,0.0,0.0
1727242206139573002,1.11,0.0,0.0,0.0,0.0,0.0
1727242206163732200,1.094,0.0,0.0,0.0,0.0,0.0
1727242206171516807,1.078,0.0,0.0,0.0,0.0,0.0
1727242206191776038,1.07,0.0,0.0,0.0,0.0,0.0
1727242206207775237,1.054,0.0,0.0,0.0,0.0,0.0
1727242206210906393,1.054,0.0,0.0,0.0,0.0,0.0
1727242206227618927,1.046,0.0,0.0,0.0,0.0,0.0
1727242206235677075,1.03,0.0,0.0,0.0,0.0,0.0
1727242206267796636,1.014,0.0,0.0,0.0,0.0,0.0
1727242206283904030,0.982,0.0,0.0,0.0,0.0,0.0
1727242206295881581,0.966,0.0,0.0,0.0,0.0,0.0
1727242206311182557,0.966,0.0,0.0,0.0,0.0,0.0
1727242206311597690,0.95,0.0,0.0,0.0,0.0,0.0
1727242206339736554,0.942,0.0,0.0,0.0,0.0,0.0
1727242206347600624,0.935,0.0,0.0,0.0,0.0,0.0
1727242206367649198,0.927,0.0,0.0,0.0,0.0,0.0
1727242206379677934,0.919,0.0,0.0,0.0,0.0,0.0
1727242206399614869,0.911,0.0,0.0,0.0,0.0,0.0
1727242206407558034,0.903,0.0,0.0,0.0,0.0,0.0
1727242206410763288,0.903,0.0,0.0,0.0,0.0,0.0
1727242206427797201,0.895,0.0,0.0,0.0,0.0,0.0
1727242206439692299,0.887,0.0,0.0,0.0,0.0,0.0
1727242206459752750,0.879,0.0,0.0,0.0,0.0,0.0
1727242206475727461,0.863,0.0,0.0,0.0,0.0,0.0
1727242206487592631,0.855,0.0,0.0,0.0,0.0,0.0
1727242206503683386,0.839,0.0,0.0,0.0,0.0,0.0
1727242206510642182,0.839,0.0,0.0,0.0,0.0,0.0
1727242206519849138,0.823,0.0,0.0,0.0,0.0,0.0
1727242206535935031,0.807,0.0,0.0,0.0,0.0,0.0
1727242206552280700,0.799,0.0,0.0,0.0,0.0,0.0
1727242206571994716,0.783,0.0,0.0,0.0,0.0,0.0
1727242206579642247,0.775,0.0,0.0,0.0,0.0,0.0
1727242206599783298,0.759,0.0,0.0,0.0,0.0,0.0
1727242206611193222,0.759,0.0,0.0,0.0,0.0,0.0
1727242206615789957,0.751,0.0,0.0,0.0,0.0,0.0
1727242206631716474,0.735,0.0,0.0,0.0,0.0,0.0
1727242206648108846,0.719,0.0,0.0,0.0,0.0,0.0
1727242206668171511,0.704,0.0,0.0,0.0,0.0,0.0
1727242206675821503,0.688,0.0,0.0,0.0,0.0,0.0
1727242206691924073,0.672,0.0,0.0,0.0,0.0,0.0
1727242206707850490,0.656,0.0,0.0,0.0,0.0,0.0
1727242206710888532,0.656,0.0,0.0,0.0,0.0,0.0
1727242206723883322,0.64,0.0,0.0,0.0,0.0,0.0
1727242206735973356,0.624,0.0,0.0,0.0,0.0,0.0
1727242206767951239,0.608,0.0,0.0,0.0,0.0,0.0
1727242206775822130,0.592,0.0,0.0,0.0,0.0,0.0
1727242206787733619,0.576,0.0,0.0,0.0,0.0,0.0
1727242206807811315,0.56,0.0,0.0,0.0,0.0,0.0
1727242206811157312,0.56,0.0,0.0,0.0,0.0,0.0
1727242206815784268,0.544,0.0,0.0,0.0,0.0,0.0
1727242206839860929,0.536,0.0,0.0,0.0,0.0,0.0
1727242206847892109,0.52,0.0,0.0,0.0,0.0,0.0
1727242206867815727,0.496,0.0,0.0,0.0,0.0,0.0
1727242206884080094,0.481,0.0,0.0,0.0,0.0,0.0
1727242206907909749,0.457,0.0,0.0,0.0,0.0,0.0
1727242206914120212,0.457,0.0,0.0,0.0,0.0,0.0
1727242206919731309,0.441,0.0,0.0,0.0,0.0,0.0
1727242206931834644,0.417,0.0,0.0,0.0,0.0,0.0
1727242206943930468,0.393,0.0,0.0,0.0,0.0,0.0
1727242206964041774,0.361,0.0,0.0,0.0,0.0,0.0
1727242206976127728,0.337,0.0,0.0,0.0,0.0,0.0
1727242206992112936,0.305,0.0,0.0,0.0,0.0,0.0
1727242207008073551,0.281,0.0,0.0,0.0,0.0,0.0
1727242207010929198,0.281,0.0,0.0,0.0,0.0,0.0
1727242207023849029,0.258,0.0,0.0,0.0,0.0,0.0
1727242207040197703,0.234,0.0,0.0,0.0,0.0,0.0
1727242207055994003,0.21,0.0,0.0,0.0,0.0,0.0
1727242207067938523,0.186,0.0,0.0,0.0,0.0,0.0
1727242207084288273,0.154,0.0,0.0,0.0,0.0,0.0
1727242207100055639,0.13,0.0,0.0,0.0,0.0,0.0
1727242207111032320,0.13,0.0,0.0,0.0,0.0,0.0
1727242207116324306,0.098,0.0,0.0,0.0,0.0,0.0
1727242207131850182,0.074,0.0,0.0,0.0,0.0,0.0
1727242207151972385,0.042,0.0,0.0,0.0,0.0,0.0
1727242207163762065,0.011,0.0,0.0,0.0,0.0,0.0
1727242207179859107,-0.021,0.0,0.0,0.0,0.0,0.0
1727242207196016188,-0.045,0.0,0.0,0.0,0.0,0.0
1727242207210999329,-0.045,0.0,0.0,0.0,0.0,0.0
1727242207211813025,-0.061,0.0,0.0,0.0,0.0,0.0
1727242207227926664,-0.077,0.0,0.0,0.0,0.0,0.0
1727242207239879912,-0.093,0.0,0.0,0.0,0.0,0.0
1727242207255864823,-0.109,0.0,0.0,0.0,0.0,0.0
1727242207279869166,-0.125,0.0,0.0,0.0,0.0,0.0
1727242207291841154,-0.141,0.0,0.0,0.0,0.0,0.0
1727242207307867692,-0.157,0.0,0.0,0.0,0.0,0.0
1727242207310817632,-0.157,0.0,0.0,0.0,0.0,0.0
1727242207319805955,-0.173,0.0,0.0,0.0,0.0,0.0
1727242207335860279,-0.188,0.0,0.0,0.0,0.0,0.0
1727242207352008165,-0.212,0.0,0.0,0.0,0.0,0.0
1727242207368064041,-0.228,0.0,0.0,0.0,0.0,0.0
1727242207379935383,-0.244,0.0,0.0,0.0,0.0,0.0
1727242207400043335,-0.26,0.0,0.0,0.0,0.0,0.0
1727242207411209858,-0.26,0.0,0.0,0.0,0.0,0.0
1727242207411901903,-0.276,0.0,0.0,0.0,0.0,0.0
1727242207427904974,-0.3,0.0,0.0,0.0,0.0,0.0
1727242207444022691,-0.316,0.0,0.0,0.0,0.0,0.0
1727242207464263135,-0.34,0.0,0.0,0.0,0.0,0.0
1727242207475910250,-0.364,0.0,0.0,0.0,0.0,0.0
1727242207491988191,-0.388,0.0,0.0,0.0,0.0,0.0
1727242207511046782,-0.388,0.0,0.0,0.0,0.0,0.0
1727242207511913168,-0.404,0.0,0.0,0.0,0.0,0.0
1727242207528114871,-0.419,0.0,0.0,0.0,0.0,0.0
1727242207544324323,-0.435,0.0,0.0,0.0,0.0,0.0
1727242207560053395,-0.451,0.0,0.0,0.0,0.0,0.0
1727242207580079509,-0.467,0.0,0.0,0.0,0.0,0.0
1727242207588015858,-0.483,0.0,0.0,0.0,0.0,0.0
1727242207608026292,-0.499,0.0,0.0,0.0,0.0,0.0
1727242207610851058,-0.499,0.0,0.0,0.0,0.0,0.0
1727242207620006855,-0.515,0.0,0.0,0.0,0.0,0.0
1727242207644058600,-0.531,0.0,0.0,0.0,0.0,0.0
1727242207652082040,-0.547,0.0,0.0,0.0,0.0,0.0
1727242207668093977,-0.555,0.0,0.0,0.0,0.0,0.0
1727242207684028909,-0.571,0.0,0.0,0.0,0.0,0.0
1727242207700088078,-0.587,0.0,0.0,0.0,0.0,0.0
1727242207710910167,-0.587,0.0,0.0,0.0,0.0,0.0
1727242207716015515,-0.603,0.0,0.0,0.0,0.0,0.0
1727242207728160553,-0.619,0.0,0.0,0.0,0.0,0.0
1727242207744015214,-0.627,0.0,0.0,0.0,0.0,0.0
1727242207760155472,-0.642,0.0,0.0,0.0,0.0,0.0
1727242207796156945,-0.658,0.0,0.0,0.0,0.0,0.0
1727242207803919028,-0.674,0.0,0.0,0.0,0.0,0.0
1727242207811274863,-0.674,0.0,0.0,0.0,0.0,0.0
1727242207816082196,-0.69,0.0,0.0,0.0,0.0,0.0
1727242207824330262,-0.706,0.0,0.0,0.0,0.0,0.0
1727242207840042946,-0.722,0.0,0.0,0.0,0.0,0.0
1727242207860143259,-0.73,0.0,0.0,0.0,0.0,0.0
1727242207872050639,-0.746,0.0,0.0,0.0,0.0,0.0
1727242207896204081,-0.754,0.0,0.0,0.0,0.0,0.0
1727242207903956776,-0.762,0.0,0.0,0.0,0.0,0.0
1727242207914024345,-0.762,0.0,0.0,0.0,0.0,0.0
1727242207915990954,-0.77,0.0,0.0,0.0,0.0,0.0
1727242207936000848,-0.778,0.0,0.0,0.0,0.0,0.0
1727242207952188848,-0.786,0.0,0.0,0.0,0.0,0.0
1727242207968138831,-0.794,0.0,0.0,0.0,0.0,0.0
1727242207980026897,-0.802,0.0,0.0,0.0,0.0,0.0
1727242207996162155,-0.81,0.0,0.0,0.0,0.0,0.0
1727242208011072462,-0.81,0.0,0.0,0.0,0.0,0.0
1727242208012062408,-0.818,0.0,0.0,0.0,0.0,0.0
1727242208028091834,-0.826,0.0,0.0,0.0,0.0,0.0
1727242208040073167,-0.834,0.0,0.0,0.0,0.0,0.0
1727242208056104150,-0.842,0.0,0.0,0.0,0.0,0.0
1727242208076351916,-0.85,0.0,0.0,0.0,0.0,0.0
1727242208092085273,-0.858,0.0,0.0,0.0,0.0,0.0
1727242208108198855,-0.865,0.0,0.0,0.0,0.0,0.0
1727242208110617403,-0.865,0.0,0.0,0.0,0.0,0.0
1727242208124021582,-0.873,0.0,0.0,0.0,0.0,0.0
1727242208144154512,-0.881,0.0,0.0,0.0,0.0,0.0
1727242208151959293,-0.889,0.0,0.0,0.0,0.0,0.0
1727242208168254383,-0.897,0.0,0.0,0.0,0.0,0.0
1727242208184575515,-0.905,0.0,0.0,0.0,0.0,0.0
1727242208200238650,-0.913,0.0,0.0,0.0,0.0,0.0
1727242208210405911,-0.913,0.0,0.0,0.0,0.0,0.0
1727242208212036720,-0.921,0.0,0.0,0.0,0.0,0.0
1727242208228207459,-0.929,0.0,0.0,0.0,0.0,0.0
1727242208244241514,-0.937,0.0,0.0,0.0,0.0,0.0
1727242208260257132,-0.945,0.0,0.0,0.0,0.0,0.0
1727242208284508479,-0.961,0.0,0.0,0.0,0.0,0.0
1727242208292073465,-0.969,0.0,0.0,0.0,0.0,0.0
1727242208310927193,-0.969,0.0,0.0,0.0,0.0,0.0
1727242208324355551,-0.985,0.0,0.0,0.0,0.0,0.0
1727242208340356500,-1.009,0.0,0.0,0.0,0.0,0.0
1727242208356380764,-1.025,0.0,0.0,0.0,0.0,0.0
1727242208376254165,-1.033,0.0,0.0,0.0,0.0,0.0
1727242208396389042,-1.049,0.0,0.0,0.0,0.0,0.0
1727242208404108333,-1.065,0.0,0.0,0.0,0.0,0.0
